Wavelength,n,k
1,2.97925,0.658241
1.12207,3.06649,0.675538
1.24415,3.16381,0.663758
1.36622,3.24205,0.617192
1.48829,3.28913,0.563799
1.61037,3.31764,0.518391
1.73244,3.33764,0.481363
1.85452,3.35339,0.450257
1.97659,3.36644,0.42322
2.09866,3.37742,0.39917
2.22074,3.38669,0.377496
2.34281,3.39452,0.357821
2.46488,3.40112,0.339887
2.58696,3.4067,0.323493
2.70903,3.41142,0.308473
2.8311,3.41543,0.294684
2.95318,3.41885,0.281997
3.07525,3.42178,0.2703
3.19732,3.4243,0.259492
3.3194,3.42648,0.249484
3.44147,3.42837,0.240196
3.56355,3.43002,0.231559
3.68562,3.43146,0.223509
3.80769,3.43274,0.215992
3.92977,3.43386,0.208958
4.05184,3.43485,0.202364
4.17391,3.43574,0.196171
4.29599,3.43653,0.190345
4.41806,3.43725,0.184854
4.54013,3.43789,0.17967
4.66221,3.43846,0.17477
4.78428,3.43899,0.17013
4.90635,3.43946,0.165732
5.02843,3.43989,0.161555
5.1505,3.44029,0.157585
5.27258,3.44065,0.153807
5.39465,3.44098,0.150206
5.51672,3.44129,0.146771
5.6388,3.44157,0.143491
5.76087,3.44183,0.140355
5.88294,3.44207,0.137354
6.00502,3.44229,0.134479
6.12709,3.4425,0.131723
6.24916,3.4427,0.129079
6.37124,3.44288,0.126539
6.49331,3.44304,0.124099
6.61538,3.4432,0.121751
6.73746,3.44335,0.119491
6.85953,3.44349,0.117314
6.98161,3.44362,0.115215
7.10368,3.44374,0.113191
7.22575,3.44385,0.111237
7.34783,3.44396,0.10935
7.4699,3.44406,0.107526
7.59197,3.44416,0.105763
7.71405,3.44425,0.104056
7.83612,3.44434,0.102405
7.95819,3.44442,0.100805
8.08027,3.4445,0.099255
8.20234,3.44457,0.097752
8.32441,3.44464,0.096294
8.44649,3.44471,0.094879
8.56856,3.44477,0.093506
8.69064,3.44483,0.092172
8.81271,3.44489,0.090875
8.93478,3.44494,0.089615
9.05686,3.445,0.08839
9.17893,3.44505,0.087197
9.301,3.4451,0.086037
9.42308,3.44514,0.084907
9.54515,3.44519,0.083807
9.66722,3.44523,0.082735
9.7893,3.44527,0.08169
9.91137,3.44531,0.080672
10.0334,3.44535,0.079678
10.1555,3.44538,0.078709
10.2776,3.44542,0.077764
10.3997,3.44545,0.076841
10.5217,3.44548,0.075939
10.6438,3.44551,0.075059
10.7659,3.44554,0.074199
10.888,3.44557,0.073358
11.01,3.4456,0.072537
11.1321,3.44562,0.071733
11.2542,3.44565,0.070948
11.3763,3.44567,0.070179
11.4983,3.4457,0.069427
11.6204,3.44572,0.068691
11.7425,3.44574,0.067971
11.8645,3.44576,0.067265
11.9866,3.44579,0.066574
12.1087,3.44581,0.065897
12.2308,3.44583,0.065234
12.3528,3.44584,0.064584
12.4749,3.44586,0.063947
12.597,3.44588,0.063323
12.7191,3.4459,0.06271
12.8411,3.44591,0.062109
12.9632,3.44593,0.06152
13.0853,3.44595,0.060942
13.2074,3.44596,0.060375
13.3294,3.44598,0.059818
13.4515,3.44599,0.059271
13.5736,3.446,0.058735
13.6957,3.44602,0.058208
13.8177,3.44603,0.05769
13.9398,3.44604,0.057182
14.0619,3.44606,0.056682
14.1839,3.44607,0.056191
14.306,3.44608,0.055709
14.4281,3.44609,0.055234
14.5502,3.4461,0.054768
14.6722,3.44611,0.05431
14.7943,3.44613,0.053859
14.9164,3.44614,0.053416
15.0385,3.44615,0.05298
15.1605,3.44616,0.052551
15.2826,3.44617,0.052129
15.4047,3.44617,0.051714
15.5268,3.44618,0.051305
15.6488,3.44619,0.050903
15.7709,3.4462,0.050507
15.893,3.44621,0.050117
16.0151,3.44622,0.049733
16.1371,3.44623,0.049355
16.2592,3.44623,0.048982
16.3813,3.44624,0.048616
16.5033,3.44625,0.048254
16.6254,3.44626,0.047899
16.7475,3.44626,0.047548
16.8696,3.44627,0.047202
16.9916,3.44628,0.046862
17.1137,3.44628,0.046526
17.2358,3.44629,0.046195
17.3579,3.4463,0.045869
17.4799,3.4463,0.045547
17.602,3.44631,0.04523
17.7241,3.44632,0.044917
17.8462,3.44632,0.044609
17.9682,3.44633,0.044304
18.0903,3.44633,0.044004
18.2124,3.44634,0.043708
18.3344,3.44634,0.043416
18.4565,3.44635,0.043128
18.5786,3.44636,0.042843
18.7007,3.44636,0.042563
18.8227,3.44637,0.042286
18.9448,3.44637,0.042012
19.0669,3.44637,0.041742
19.189,3.44638,0.041476
19.311,3.44638,0.041213
19.4331,3.44639,0.040953
19.5552,3.44639,0.040696
19.6773,3.4464,0.040443
19.7993,3.4464,0.040193
19.9214,3.44641,0.039946
20.0435,3.44641,0.039702
20.1656,3.44641,0.039461
20.2876,3.44642,0.039223
20.4097,3.44642,0.038987
20.5318,3.44643,0.038755
20.6538,3.44643,0.038525
20.7759,3.44643,0.038298
20.898,3.44644,0.038074
21.0201,3.44644,0.037852
21.1421,3.44644,0.037633
21.2642,3.44645,0.037416
21.3863,3.44645,0.037202
21.5084,3.44645,0.03699
21.6304,3.44646,0.036781
21.7525,3.44646,0.036574
21.8746,3.44646,0.036369
21.9967,3.44647,0.036167
22.1187,3.44647,0.035967
22.2408,3.44647,0.035769
22.3629,3.44648,0.035573
22.4849,3.44648,0.035379
22.607,3.44648,0.035188
22.7291,3.44648,0.034999
22.8512,3.44649,0.034811
22.9732,3.44649,0.034626
23.0953,3.44649,0.034442
23.2174,3.44649,0.034261
23.3395,3.4465,0.034081
23.4615,3.4465,0.033903
23.5836,3.4465,0.033727
23.7057,3.4465,0.033553
23.8278,3.44651,0.033381
23.9498,3.44651,0.03321
24.0719,3.44651,0.033042
24.194,3.44651,0.032875
24.3161,3.44652,0.032709
24.4381,3.44652,0.032545
24.5602,3.44652,0.032383
24.6823,3.44652,0.032223
24.8043,3.44653,0.032064
24.9264,3.44653,0.031907
25.0485,3.44653,0.031751
25.1706,3.44653,0.031596
25.2926,3.44653,0.031444
25.4147,3.44654,0.031292
25.5368,3.44654,0.031143
25.6589,3.44654,0.030994
25.7809,3.44654,0.030847
25.903,3.44654,0.030701
26.0251,3.44655,0.030557
26.1472,3.44655,0.030414
26.2692,3.44655,0.030273
26.3913,3.44655,0.030132
26.5134,3.44655,0.029993
26.6355,3.44655,0.029856
26.7575,3.44656,0.029719
26.8796,3.44656,0.029584
27.0017,3.44656,0.02945
27.1237,3.44656,0.029317
27.2458,3.44656,0.029185
27.3679,3.44656,0.029055
27.49,3.44657,0.028926
27.612,3.44657,0.028798
27.7341,3.44657,0.028671
27.8562,3.44657,0.028545
27.9783,3.44657,0.02842
28.1003,3.44657,0.028296
28.2224,3.44657,0.028174
28.3445,3.44658,0.028052
28.4666,3.44658,0.027932
28.5886,3.44658,0.027813
28.7107,3.44658,0.027694
28.8328,3.44658,0.027577
28.9548,3.44658,0.02746
29.0769,3.44658,0.027345
29.199,3.44659,0.02723
29.3211,3.44659,0.027117
29.4431,3.44659,0.027004
29.5652,3.44659,0.026892
29.6873,3.44659,0.026782
29.8094,3.44659,0.026672
29.9314,3.44659,0.026563
30.0535,3.44659,0.026455
30.1756,3.44659,0.026348
30.2977,3.4466,0.026241
30.4197,3.4466,0.026136
30.5418,3.4466,0.026031
30.6639,3.4466,0.025927
30.786,3.4466,0.025825
30.908,3.4466,0.025722
31.0301,3.4466,0.025621
31.1522,3.4466,0.025521
31.2742,3.4466,0.025421
31.3963,3.44661,0.025322
31.5184,3.44661,0.025224
31.6405,3.44661,0.025126
31.7625,3.44661,0.025029
31.8846,3.44661,0.024934
32.0067,3.44661,0.024838
32.1288,3.44661,0.024744
32.2508,3.44661,0.02465
32.3729,3.44661,0.024557
32.495,3.44661,0.024465
32.6171,3.44662,0.024373
32.7391,3.44662,0.024282
32.8612,3.44662,0.024192
32.9833,3.44662,0.024102
33.1054,3.44662,0.024013
33.2274,3.44662,0.023925
33.3495,3.44662,0.023837
33.4716,3.44662,0.02375
33.5936,3.44662,0.023664
33.7157,3.44662,0.023578
33.8378,3.44662,0.023493
33.9599,3.44663,0.023408
34.0819,3.44663,0.023324
34.204,3.44663,0.023241
34.3261,3.44663,0.023158
34.4482,3.44663,0.023076
34.5702,3.44663,0.022994
34.6923,3.44663,0.022913
34.8144,3.44663,0.022833
34.9365,3.44663,0.022753
35.0585,3.44663,0.022674
35.1806,3.44663,0.022595
35.3027,3.44663,0.022517
35.4247,3.44663,0.022439
35.5468,3.44664,0.022362
35.6689,3.44664,0.022285
35.791,3.44664,0.022209
35.913,3.44664,0.022134
36.0351,3.44664,0.022059
36.1572,3.44664,0.021984
36.2793,3.44664,0.02191
36.4013,3.44664,0.021837
36.5234,3.44664,0.021764
36.6455,3.44664,0.021691
36.7676,3.44664,0.021619
36.8896,3.44664,0.021547
37.0117,3.44664,0.021476
37.1338,3.44664,0.021406
37.2559,3.44664,0.021335
37.3779,3.44664,0.021265
37.5,3.44665,0.021196
